# Statistical Thermodynamics
# Computation done on 08-Feb-2020 14:50:19
# Species NO(A)
# Standard state T =    2.98150e+02 (K) P =    1.01325e+05 (Pa)
# C_P           2.91233e+01 (J/K mol)
# H             6.17073e+05 (J/mol)
# S             2.03894e+02 (J/K mol)
# C_P/R         3.50273e+00
# H/RT          2.48925e+02
# S/R           2.45229e+01
#     T            C_P/R           H/RT            S/R
   2.00000e+02,    3.50078e+00,    3.69366e+02,    2.31249e+01
   2.10000e+02,    3.50083e+00,    3.51944e+02,    2.32957e+01
   2.20000e+02,    3.50090e+00,    3.36106e+02,    2.34585e+01
   2.30000e+02,    3.50097e+00,    3.21644e+02,    2.36142e+01
   2.40000e+02,    3.50108e+00,    3.08389e+02,    2.37632e+01
   2.50000e+02,    3.50121e+00,    2.96193e+02,    2.39061e+01
   2.60000e+02,    3.50139e+00,    2.84936e+02,    2.40434e+01
   2.70000e+02,    3.50163e+00,    2.74512e+02,    2.41755e+01
   2.80000e+02,    3.50194e+00,    2.64833e+02,    2.43029e+01
   2.90000e+02,    3.50233e+00,    2.55822e+02,    2.44258e+01
   3.00000e+02,    3.50283e+00,    2.47411e+02,    2.45445e+01
   3.10000e+02,    3.50346e+00,    2.39543e+02,    2.46594e+01
   3.20000e+02,    3.50422e+00,    2.32167e+02,    2.47706e+01
   3.30000e+02,    3.50513e+00,    2.25238e+02,    2.48785e+01
   3.40000e+02,    3.50622e+00,    2.18716e+02,    2.49831e+01
   3.50000e+02,    3.50751e+00,    2.12567e+02,    2.50848e+01
   3.60000e+02,    3.50899e+00,    2.06760e+02,    2.51836e+01
   3.70000e+02,    3.51070e+00,    2.01267e+02,    2.52798e+01
   3.80000e+02,    3.51264e+00,    1.96063e+02,    2.53734e+01
   3.90000e+02,    3.51483e+00,    1.91126e+02,    2.54647e+01
   4.00000e+02,    3.51727e+00,    1.86435e+02,    2.55537e+01
   4.10000e+02,    3.51996e+00,    1.81974e+02,    2.56406e+01
   4.20000e+02,    3.52293e+00,    1.77725e+02,    2.57255e+01
   4.30000e+02,    3.52616e+00,    1.73674e+02,    2.58084e+01
   4.40000e+02,    3.52967e+00,    1.69807e+02,    2.58895e+01
   4.50000e+02,    3.53345e+00,    1.66112e+02,    2.59689e+01
   4.60000e+02,    3.53750e+00,    1.62578e+02,    2.60466e+01
   4.70000e+02,    3.54182e+00,    1.59194e+02,    2.61227e+01
   4.80000e+02,    3.54640e+00,    1.55951e+02,    2.61973e+01
   4.90000e+02,    3.55124e+00,    1.52841e+02,    2.62705e+01
   5.00000e+02,    3.55634e+00,    1.49855e+02,    2.63423e+01
   5.10000e+02,    3.56167e+00,    1.46987e+02,    2.64128e+01
   5.20000e+02,    3.56725e+00,    1.44229e+02,    2.64820e+01
   5.30000e+02,    3.57305e+00,    1.41575e+02,    2.65500e+01
   5.40000e+02,    3.57907e+00,    1.39019e+02,    2.66168e+01
   5.50000e+02,    3.58529e+00,    1.36557e+02,    2.66826e+01
   5.60000e+02,    3.59172e+00,    1.34182e+02,    2.67472e+01
   5.70000e+02,    3.59833e+00,    1.31891e+02,    2.68108e+01
   5.80000e+02,    3.60511e+00,    1.29679e+02,    2.68735e+01
   5.90000e+02,    3.61205e+00,    1.27543e+02,    2.69352e+01
   6.00000e+02,    3.61915e+00,    1.25477e+02,    2.69959e+01
   6.10000e+02,    3.62639e+00,    1.23479e+02,    2.70558e+01
   6.20000e+02,    3.63376e+00,    1.21546e+02,    2.71148e+01
   6.30000e+02,    3.64125e+00,    1.19675e+02,    2.71730e+01
   6.40000e+02,    3.64884e+00,    1.17862e+02,    2.72305e+01
   6.50000e+02,    3.65654e+00,    1.16105e+02,    2.72871e+01
   6.60000e+02,    3.66432e+00,    1.14401e+02,    2.73430e+01
   6.70000e+02,    3.67217e+00,    1.12748e+02,    2.73981e+01
   6.80000e+02,    3.68010e+00,    1.11144e+02,    2.74526e+01
   6.90000e+02,    3.68808e+00,    1.09587e+02,    2.75064e+01
   7.00000e+02,    3.69611e+00,    1.08074e+02,    2.75595e+01
   7.10000e+02,    3.70418e+00,    1.06604e+02,    2.76120e+01
   7.20000e+02,    3.71228e+00,    1.05175e+02,    2.76639e+01
   7.30000e+02,    3.72041e+00,    1.03785e+02,    2.77151e+01
   7.40000e+02,    3.72855e+00,    1.02433e+02,    2.77658e+01
   7.50000e+02,    3.73671e+00,    1.01117e+02,    2.78159e+01
   7.60000e+02,    3.74486e+00,    9.98357e+01,    2.78654e+01
   7.70000e+02,    3.75301e+00,    9.85879e+01,    2.79144e+01
   7.80000e+02,    3.76116e+00,    9.73721e+01,    2.79629e+01
   7.90000e+02,    3.76928e+00,    9.61872e+01,    2.80109e+01
   8.00000e+02,    3.77739e+00,    9.50320e+01,    2.80583e+01
   8.10000e+02,    3.78547e+00,    9.39055e+01,    2.81053e+01
   8.20000e+02,    3.79351e+00,    9.28065e+01,    2.81518e+01
   8.30000e+02,    3.80153e+00,    9.17341e+01,    2.81979e+01
   8.40000e+02,    3.80950e+00,    9.06873e+01,    2.82434e+01
   8.50000e+02,    3.81743e+00,    8.96653e+01,    2.82886e+01
   8.60000e+02,    3.82532e+00,    8.86671e+01,    2.83333e+01
   8.70000e+02,    3.83315e+00,    8.76919e+01,    2.83775e+01
   8.80000e+02,    3.84093e+00,    8.67390e+01,    2.84214e+01
   8.90000e+02,    3.84866e+00,    8.58077e+01,    2.84648e+01
   9.00000e+02,    3.85633e+00,    8.48970e+01,    2.85079e+01
   9.10000e+02,    3.86393e+00,    8.40065e+01,    2.85505e+01
   9.20000e+02,    3.87148e+00,    8.31355e+01,    2.85928e+01
   9.30000e+02,    3.87896e+00,    8.22832e+01,    2.86347e+01
   9.40000e+02,    3.88637e+00,    8.14491e+01,    2.86762e+01
   9.50000e+02,    3.89372e+00,    8.06327e+01,    2.87174e+01
   9.60000e+02,    3.90099e+00,    7.98334e+01,    2.87582e+01
   9.70000e+02,    3.90820e+00,    7.90506e+01,    2.87986e+01
   9.80000e+02,    3.91534e+00,    7.82839e+01,    2.88388e+01
   9.90000e+02,    3.92240e+00,    7.75327e+01,    2.88786e+01
   1.00000e+03,    3.92939e+00,    7.67967e+01,    2.89180e+01
   1.01000e+03,    3.93630e+00,    7.60753e+01,    2.89571e+01
   1.02000e+03,    3.94314e+00,    7.53680e+01,    2.89960e+01
   1.03000e+03,    3.94991e+00,    7.46746e+01,    2.90345e+01
   1.04000e+03,    3.95660e+00,    7.39946e+01,    2.90727e+01
   1.05000e+03,    3.96321e+00,    7.33276e+01,    2.91106e+01
   1.06000e+03,    3.96975e+00,    7.26733e+01,    2.91481e+01
   1.07000e+03,    3.97622e+00,    7.20312e+01,    2.91855e+01
   1.08000e+03,    3.98261e+00,    7.14011e+01,    2.92225e+01
   1.09000e+03,    3.98892e+00,    7.07826e+01,    2.92592e+01
   1.10000e+03,    3.99516e+00,    7.01754e+01,    2.92957e+01
   1.11000e+03,    4.00132e+00,    6.95792e+01,    2.93318e+01
   1.12000e+03,    4.00741e+00,    6.89937e+01,    2.93678e+01
   1.13000e+03,    4.01342e+00,    6.84187e+01,    2.94034e+01
   1.14000e+03,    4.01936e+00,    6.78537e+01,    2.94388e+01
   1.15000e+03,    4.02522e+00,    6.72987e+01,    2.94739e+01
   1.16000e+03,    4.03102e+00,    6.67532e+01,    2.95088e+01
   1.17000e+03,    4.03673e+00,    6.62172e+01,    2.95434e+01
   1.18000e+03,    4.04238e+00,    6.56903e+01,    2.95778e+01
   1.19000e+03,    4.04796e+00,    6.51722e+01,    2.96119e+01
   1.20000e+03,    4.05346e+00,    6.46629e+01,    2.96458e+01
   1.21000e+03,    4.05889e+00,    6.41620e+01,    2.96795e+01
   1.22000e+03,    4.06426e+00,    6.36694e+01,    2.97129e+01
   1.23000e+03,    4.06955e+00,    6.31848e+01,    2.97461e+01
   1.24000e+03,    4.07478e+00,    6.27081e+01,    2.97791e+01
   1.25000e+03,    4.07994e+00,    6.22390e+01,    2.98119e+01
   1.26000e+03,    4.08503e+00,    6.17775e+01,    2.98444e+01
   1.27000e+03,    4.09006e+00,    6.13232e+01,    2.98767e+01
   1.28000e+03,    4.09502e+00,    6.08761e+01,    2.99088e+01
   1.29000e+03,    4.09991e+00,    6.04360e+01,    2.99407e+01
   1.30000e+03,    4.10474e+00,    6.00026e+01,    2.99724e+01
   1.31000e+03,    4.10951e+00,    5.95760e+01,    3.00038e+01
   1.32000e+03,    4.11422e+00,    5.91558e+01,    3.00351e+01
   1.33000e+03,    4.11886e+00,    5.87419e+01,    3.00662e+01
   1.34000e+03,    4.12345e+00,    5.83343e+01,    3.00970e+01
   1.35000e+03,    4.12797e+00,    5.79328e+01,    3.01277e+01
   1.36000e+03,    4.13243e+00,    5.75372e+01,    3.01582e+01
   1.37000e+03,    4.13684e+00,    5.71474e+01,    3.01885e+01
   1.38000e+03,    4.14119e+00,    5.67633e+01,    3.02186e+01
   1.39000e+03,    4.14548e+00,    5.63847e+01,    3.02485e+01
   1.40000e+03,    4.14971e+00,    5.60116e+01,    3.02782e+01
   1.41000e+03,    4.15389e+00,    5.56438e+01,    3.03078e+01
   1.42000e+03,    4.15801e+00,    5.52812e+01,    3.03372e+01
   1.43000e+03,    4.16208e+00,    5.49237e+01,    3.03664e+01
   1.44000e+03,    4.16610e+00,    5.45712e+01,    3.03954e+01
   1.45000e+03,    4.17007e+00,    5.42236e+01,    3.04242e+01
   1.46000e+03,    4.17398e+00,    5.38808e+01,    3.04529e+01
   1.47000e+03,    4.17784e+00,    5.35426e+01,    3.04814e+01
   1.48000e+03,    4.18166e+00,    5.32091e+01,    3.05097e+01
   1.49000e+03,    4.18542e+00,    5.28801e+01,    3.05379e+01
   1.50000e+03,    4.18913e+00,    5.25555e+01,    3.05659e+01
   1.51000e+03,    4.19280e+00,    5.22352e+01,    3.05938e+01
   1.52000e+03,    4.19642e+00,    5.19191e+01,    3.06214e+01
   1.53000e+03,    4.19999e+00,    5.16072e+01,    3.06490e+01
   1.54000e+03,    4.20352e+00,    5.12994e+01,    3.06763e+01
   1.55000e+03,    4.20700e+00,    5.09955e+01,    3.07036e+01
   1.56000e+03,    4.21044e+00,    5.06956e+01,    3.07306e+01
   1.57000e+03,    4.21383e+00,    5.03996e+01,    3.07575e+01
   1.58000e+03,    4.21718e+00,    5.01073e+01,    3.07843e+01
   1.59000e+03,    4.22049e+00,    4.98186e+01,    3.08109e+01
   1.60000e+03,    4.22376e+00,    4.95337e+01,    3.08374e+01
   1.61000e+03,    4.22698e+00,    4.92522e+01,    3.08637e+01
   1.62000e+03,    4.23017e+00,    4.89743e+01,    3.08899e+01
   1.63000e+03,    4.23331e+00,    4.86998e+01,    3.09160e+01
   1.64000e+03,    4.23642e+00,    4.84287e+01,    3.09419e+01
   1.65000e+03,    4.23949e+00,    4.81609e+01,    3.09676e+01
   1.66000e+03,    4.24252e+00,    4.78963e+01,    3.09932e+01
   1.67000e+03,    4.24551e+00,    4.76349e+01,    3.10187e+01
   1.68000e+03,    4.24846e+00,    4.73767e+01,    3.10441e+01
   1.69000e+03,    4.25138e+00,    4.71215e+01,    3.10693e+01
   1.70000e+03,    4.25426e+00,    4.68693e+01,    3.10944e+01
   1.71000e+03,    4.25711e+00,    4.66201e+01,    3.11194e+01
   1.72000e+03,    4.25992e+00,    4.63738e+01,    3.11442e+01
   1.73000e+03,    4.26270e+00,    4.61304e+01,    3.11689e+01
   1.74000e+03,    4.26544e+00,    4.58898e+01,    3.11935e+01
   1.75000e+03,    4.26816e+00,    4.56519e+01,    3.12179e+01
   1.76000e+03,    4.27083e+00,    4.54168e+01,    3.12423e+01
   1.77000e+03,    4.27348e+00,    4.51843e+01,    3.12665e+01
   1.78000e+03,    4.27610e+00,    4.49545e+01,    3.12905e+01
   1.79000e+03,    4.27868e+00,    4.47273e+01,    3.13145e+01
   1.80000e+03,    4.28123e+00,    4.45026e+01,    3.13383e+01
   1.81000e+03,    4.28376e+00,    4.42803e+01,    3.13621e+01
   1.82000e+03,    4.28625e+00,    4.40606e+01,    3.13857e+01
   1.83000e+03,    4.28871e+00,    4.38433e+01,    3.14092e+01
   1.84000e+03,    4.29115e+00,    4.36283e+01,    3.14326e+01
   1.85000e+03,    4.29356e+00,    4.34157e+01,    3.14558e+01
   1.86000e+03,    4.29594e+00,    4.32053e+01,    3.14790e+01
   1.87000e+03,    4.29829e+00,    4.29973e+01,    3.15020e+01
   1.88000e+03,    4.30061e+00,    4.27914e+01,    3.15249e+01
   1.89000e+03,    4.30291e+00,    4.25878e+01,    3.15478e+01
   1.90000e+03,    4.30518e+00,    4.23863e+01,    3.15705e+01
   1.91000e+03,    4.30743e+00,    4.21869e+01,    3.15931e+01
   1.92000e+03,    4.30965e+00,    4.19896e+01,    3.16156e+01
   1.93000e+03,    4.31184e+00,    4.17944e+01,    3.16380e+01
   1.94000e+03,    4.31401e+00,    4.16012e+01,    3.16603e+01
   1.95000e+03,    4.31616e+00,    4.14100e+01,    3.16824e+01
   1.96000e+03,    4.31828e+00,    4.12207e+01,    3.17045e+01
   1.97000e+03,    4.32038e+00,    4.10334e+01,    3.17265e+01
   1.98000e+03,    4.32246e+00,    4.08480e+01,    3.17484e+01
   1.99000e+03,    4.32451e+00,    4.06645e+01,    3.17702e+01
   2.00000e+03,    4.32654e+00,    4.04828e+01,    3.17919e+01
   2.01000e+03,    4.32855e+00,    4.03029e+01,    3.18134e+01
   2.02000e+03,    4.33053e+00,    4.01248e+01,    3.18349e+01
   2.03000e+03,    4.33250e+00,    3.99485e+01,    3.18563e+01
   2.04000e+03,    4.33444e+00,    3.97739e+01,    3.18776e+01
   2.05000e+03,    4.33636e+00,    3.96010e+01,    3.18988e+01
   2.06000e+03,    4.33826e+00,    3.94299e+01,    3.19199e+01
   2.07000e+03,    4.34014e+00,    3.92603e+01,    3.19409e+01
   2.08000e+03,    4.34200e+00,    3.90925e+01,    3.19619e+01
   2.09000e+03,    4.34385e+00,    3.89262e+01,    3.19827e+01
   2.10000e+03,    4.34567e+00,    3.87615e+01,    3.20034e+01
   2.11000e+03,    4.34747e+00,    3.85984e+01,    3.20241e+01
   2.12000e+03,    4.34925e+00,    3.84369e+01,    3.20446e+01
   2.13000e+03,    4.35102e+00,    3.82768e+01,    3.20651e+01
   2.14000e+03,    4.35277e+00,    3.81183e+01,    3.20855e+01
   2.15000e+03,    4.35449e+00,    3.79612e+01,    3.21058e+01
   2.16000e+03,    4.35620e+00,    3.78057e+01,    3.21260e+01
   2.17000e+03,    4.35790e+00,    3.76515e+01,    3.21461e+01
   2.18000e+03,    4.35957e+00,    3.74988e+01,    3.21662e+01
   2.19000e+03,    4.36123e+00,    3.73475e+01,    3.21861e+01
   2.20000e+03,    4.36287e+00,    3.71976e+01,    3.22060e+01
   2.21000e+03,    4.36450e+00,    3.70490e+01,    3.22258e+01
   2.22000e+03,    4.36611e+00,    3.69018e+01,    3.22455e+01
   2.23000e+03,    4.36770e+00,    3.67559e+01,    3.22651e+01
   2.24000e+03,    4.36927e+00,    3.66113e+01,    3.22847e+01
   2.25000e+03,    4.37083e+00,    3.64680e+01,    3.23041e+01
   2.26000e+03,    4.37238e+00,    3.63260e+01,    3.23235e+01
   2.27000e+03,    4.37391e+00,    3.61852e+01,    3.23428e+01
   2.28000e+03,    4.37542e+00,    3.60457e+01,    3.23620e+01
   2.29000e+03,    4.37692e+00,    3.59074e+01,    3.23812e+01
   2.30000e+03,    4.37841e+00,    3.57703e+01,    3.24003e+01
   2.31000e+03,    4.37987e+00,    3.56344e+01,    3.24193e+01
   2.32000e+03,    4.38133e+00,    3.54997e+01,    3.24382e+01
   2.33000e+03,    4.38277e+00,    3.53661e+01,    3.24570e+01
   2.34000e+03,    4.38420e+00,    3.52337e+01,    3.24758e+01
   2.35000e+03,    4.38561e+00,    3.51025e+01,    3.24945e+01
   2.36000e+03,    4.38701e+00,    3.49723e+01,    3.25131e+01
   2.37000e+03,    4.38839e+00,    3.48433e+01,    3.25317e+01
   2.38000e+03,    4.38977e+00,    3.47153e+01,    3.25502e+01
   2.39000e+03,    4.39112e+00,    3.45884e+01,    3.25686e+01
   2.40000e+03,    4.39247e+00,    3.44626e+01,    3.25869e+01
   2.41000e+03,    4.39380e+00,    3.43378e+01,    3.26052e+01
   2.42000e+03,    4.39512e+00,    3.42141e+01,    3.26234e+01
   2.43000e+03,    4.39643e+00,    3.40914e+01,    3.26415e+01
   2.44000e+03,    4.39772e+00,    3.39697e+01,    3.26596e+01
   2.45000e+03,    4.39901e+00,    3.38490e+01,    3.26776e+01
   2.46000e+03,    4.40028e+00,    3.37293e+01,    3.26955e+01
   2.47000e+03,    4.40153e+00,    3.36105e+01,    3.27133e+01
   2.48000e+03,    4.40278e+00,    3.34928e+01,    3.27311e+01
   2.49000e+03,    4.40401e+00,    3.33759e+01,    3.27488e+01
   2.50000e+03,    4.40524e+00,    3.32601e+01,    3.27665e+01
   2.51000e+03,    4.40645e+00,    3.31451e+01,    3.27841e+01
   2.52000e+03,    4.40764e+00,    3.30311e+01,    3.28016e+01
   2.53000e+03,    4.40883e+00,    3.29179e+01,    3.28191e+01
   2.54000e+03,    4.41001e+00,    3.28057e+01,    3.28365e+01
   2.55000e+03,    4.41117e+00,    3.26943e+01,    3.28538e+01
   2.56000e+03,    4.41233e+00,    3.25839e+01,    3.28710e+01
   2.57000e+03,    4.41347e+00,    3.24742e+01,    3.28883e+01
   2.58000e+03,    4.41460e+00,    3.23655e+01,    3.29054e+01
   2.59000e+03,    4.41572e+00,    3.22576e+01,    3.29225e+01
   2.60000e+03,    4.41683e+00,    3.21505e+01,    3.29395e+01
   2.61000e+03,    4.41793e+00,    3.20442e+01,    3.29565e+01
   2.62000e+03,    4.41902e+00,    3.19388e+01,    3.29733e+01
   2.63000e+03,    4.42010e+00,    3.18342e+01,    3.29902e+01
   2.64000e+03,    4.42117e+00,    3.17303e+01,    3.30070e+01
   2.65000e+03,    4.42223e+00,    3.16273e+01,    3.30237e+01
   2.66000e+03,    4.42327e+00,    3.15250e+01,    3.30403e+01
   2.67000e+03,    4.42431e+00,    3.14235e+01,    3.30569e+01
   2.68000e+03,    4.42534e+00,    3.13227e+01,    3.30735e+01
   2.69000e+03,    4.42635e+00,    3.12228e+01,    3.30900e+01
   2.70000e+03,    4.42736e+00,    3.11235e+01,    3.31064e+01
   2.71000e+03,    4.42836e+00,    3.10250e+01,    3.31228e+01
   2.72000e+03,    4.42935e+00,    3.09272e+01,    3.31391e+01
   2.73000e+03,    4.43032e+00,    3.08302e+01,    3.31553e+01
   2.74000e+03,    4.43129e+00,    3.07338e+01,    3.31715e+01
   2.75000e+03,    4.43225e+00,    3.06382e+01,    3.31877e+01
   2.76000e+03,    4.43320e+00,    3.05432e+01,    3.32038e+01
   2.77000e+03,    4.43414e+00,    3.04490e+01,    3.32198e+01
   2.78000e+03,    4.43507e+00,    3.03554e+01,    3.32358e+01
   2.79000e+03,    4.43599e+00,    3.02625e+01,    3.32517e+01
   2.80000e+03,    4.43690e+00,    3.01703e+01,    3.32676e+01
   2.81000e+03,    4.43780e+00,    3.00787e+01,    3.32834e+01
   2.82000e+03,    4.43869e+00,    2.99878e+01,    3.32992e+01
   2.83000e+03,    4.43957e+00,    2.98975e+01,    3.33149e+01
   2.84000e+03,    4.44045e+00,    2.98078e+01,    3.33305e+01
   2.85000e+03,    4.44131e+00,    2.97188e+01,    3.33461e+01
   2.86000e+03,    4.44217e+00,    2.96304e+01,    3.33617e+01
   2.87000e+03,    4.44301e+00,    2.95427e+01,    3.33772e+01
   2.88000e+03,    4.44385e+00,    2.94555e+01,    3.33927e+01
   2.89000e+03,    4.44468e+00,    2.93690e+01,    3.34081e+01
   2.90000e+03,    4.44549e+00,    2.92830e+01,    3.34234e+01
   2.91000e+03,    4.44630e+00,    2.91977e+01,    3.34387e+01
   2.92000e+03,    4.44710e+00,    2.91129e+01,    3.34540e+01
   2.93000e+03,    4.44789e+00,    2.90287e+01,    3.34692e+01
   2.94000e+03,    4.44868e+00,    2.89451e+01,    3.34843e+01
   2.95000e+03,    4.44945e+00,    2.88621e+01,    3.34995e+01
   2.96000e+03,    4.45021e+00,    2.87796e+01,    3.35145e+01
   2.97000e+03,    4.45097e+00,    2.86977e+01,    3.35295e+01
   2.98000e+03,    4.45172e+00,    2.86163e+01,    3.35445e+01
   2.99000e+03,    4.45245e+00,    2.85355e+01,    3.35594e+01
   3.00000e+03,    4.45318e+00,    2.84553e+01,    3.35743e+01
   3.01000e+03,    4.45390e+00,    2.83755e+01,    3.35891e+01
   3.02000e+03,    4.45461e+00,    2.82963e+01,    3.36039e+01
   3.03000e+03,    4.45531e+00,    2.82176e+01,    3.36186e+01
   3.04000e+03,    4.45601e+00,    2.81395e+01,    3.36333e+01
   3.05000e+03,    4.45669e+00,    2.80618e+01,    3.36479e+01
   3.06000e+03,    4.45736e+00,    2.79847e+01,    3.36625e+01
   3.07000e+03,    4.45803e+00,    2.79080e+01,    3.36770e+01
   3.08000e+03,    4.45869e+00,    2.78319e+01,    3.36915e+01
   3.09000e+03,    4.45934e+00,    2.77563e+01,    3.37060e+01
   3.10000e+03,    4.45998e+00,    2.76811e+01,    3.37204e+01
   3.11000e+03,    4.46061e+00,    2.76064e+01,    3.37348e+01
   3.12000e+03,    4.46123e+00,    2.75323e+01,    3.37491e+01
   3.13000e+03,    4.46184e+00,    2.74586e+01,    3.37634e+01
   3.14000e+03,    4.46244e+00,    2.73853e+01,    3.37776e+01
   3.15000e+03,    4.46304e+00,    2.73125e+01,    3.37918e+01
   3.16000e+03,    4.46363e+00,    2.72402e+01,    3.38059e+01
   3.17000e+03,    4.46420e+00,    2.71684e+01,    3.38200e+01
   3.18000e+03,    4.46477e+00,    2.70970e+01,    3.38341e+01
   3.19000e+03,    4.46533e+00,    2.70260e+01,    3.38481e+01
   3.20000e+03,    4.46588e+00,    2.69555e+01,    3.38621e+01
   3.21000e+03,    4.46642e+00,    2.68855e+01,    3.38760e+01
   3.22000e+03,    4.46695e+00,    2.68159e+01,    3.38899e+01
   3.23000e+03,    4.46748e+00,    2.67467e+01,    3.39038e+01
   3.24000e+03,    4.46799e+00,    2.66779e+01,    3.39176e+01
   3.25000e+03,    4.46850e+00,    2.66096e+01,    3.39314e+01
   3.26000e+03,    4.46899e+00,    2.65417e+01,    3.39451e+01
   3.27000e+03,    4.46948e+00,    2.64742e+01,    3.39588e+01
   3.28000e+03,    4.46996e+00,    2.64071e+01,    3.39724e+01
   3.29000e+03,    4.47043e+00,    2.63404e+01,    3.39860e+01
   3.30000e+03,    4.47089e+00,    2.62741e+01,    3.39996e+01
