# Statistical Thermodynamics
# Computation done on 08-Feb-2020 14:52:36
# Species NO(X)
# Standard state T =    2.98150e+02 (K) P =    1.01325e+05 (Pa)
# C_P           2.91826e+01 (J/K mol)
# H             9.11230e+04 (J/mol)
# S             2.11136e+02 (J/K mol)
# C_P/R         3.50986e+00
# H/RT          3.67586e+01
# S/R           2.53938e+01
#     T            C_P/R           H/RT            S/R
   2.00000e+02,    3.50037e+00,    5.30786e+01,    2.39951e+01
   2.10000e+02,    3.50055e+00,    5.07178e+01,    2.41659e+01
   2.20000e+02,    3.50084e+00,    4.85715e+01,    2.43287e+01
   2.30000e+02,    3.50124e+00,    4.66120e+01,    2.44844e+01
   2.40000e+02,    3.50180e+00,    4.48157e+01,    2.46334e+01
   2.50000e+02,    3.50255e+00,    4.31631e+01,    2.47764e+01
   2.60000e+02,    3.50352e+00,    4.16378e+01,    2.49137e+01
   2.70000e+02,    3.50475e+00,    4.02254e+01,    2.50460e+01
   2.80000e+02,    3.50626e+00,    3.89140e+01,    2.51735e+01
   2.90000e+02,    3.50810e+00,    3.76930e+01,    2.52966e+01
   3.00000e+02,    3.51029e+00,    3.65536e+01,    2.54155e+01
   3.10000e+02,    3.51284e+00,    3.54877e+01,    2.55307e+01
   3.20000e+02,    3.51579e+00,    3.44885e+01,    2.56422e+01
   3.30000e+02,    3.51914e+00,    3.35500e+01,    2.57505e+01
   3.40000e+02,    3.52291e+00,    3.26668e+01,    2.58556e+01
   3.50000e+02,    3.52711e+00,    3.18342e+01,    2.59578e+01
   3.60000e+02,    3.53172e+00,    3.10479e+01,    2.60572e+01
   3.70000e+02,    3.53676e+00,    3.03043e+01,    2.61540e+01
   3.80000e+02,    3.54222e+00,    2.96000e+01,    2.62484e+01
   3.90000e+02,    3.54808e+00,    2.89319e+01,    2.63405e+01
   4.00000e+02,    3.55435e+00,    2.82974e+01,    2.64304e+01
   4.10000e+02,    3.56099e+00,    2.76940e+01,    2.65183e+01
   4.20000e+02,    3.56800e+00,    2.71195e+01,    2.66041e+01
   4.30000e+02,    3.57536e+00,    2.65719e+01,    2.66882e+01
   4.40000e+02,    3.58304e+00,    2.60493e+01,    2.67705e+01
   4.50000e+02,    3.59104e+00,    2.55501e+01,    2.68511e+01
   4.60000e+02,    3.59932e+00,    2.50729e+01,    2.69301e+01
   4.70000e+02,    3.60786e+00,    2.46161e+01,    2.70076e+01
   4.80000e+02,    3.61665e+00,    2.41785e+01,    2.70836e+01
   4.90000e+02,    3.62566e+00,    2.37589e+01,    2.71583e+01
   5.00000e+02,    3.63487e+00,    2.33564e+01,    2.72317e+01
   5.10000e+02,    3.64426e+00,    2.29698e+01,    2.73037e+01
   5.20000e+02,    3.65380e+00,    2.25982e+01,    2.73746e+01
   5.30000e+02,    3.66348e+00,    2.22409e+01,    2.74443e+01
   5.40000e+02,    3.67328e+00,    2.18969e+01,    2.75128e+01
   5.50000e+02,    3.68318e+00,    2.15657e+01,    2.75803e+01
   5.60000e+02,    3.69316e+00,    2.12464e+01,    2.76468e+01
   5.70000e+02,    3.70321e+00,    2.09386e+01,    2.77122e+01
   5.80000e+02,    3.71330e+00,    2.06415e+01,    2.77767e+01
   5.90000e+02,    3.72343e+00,    2.03547e+01,    2.78403e+01
   6.00000e+02,    3.73357e+00,    2.00776e+01,    2.79030e+01
   6.10000e+02,    3.74372e+00,    1.98097e+01,    2.79648e+01
   6.20000e+02,    3.75386e+00,    1.95507e+01,    2.80257e+01
   6.30000e+02,    3.76399e+00,    1.93000e+01,    2.80859e+01
   6.40000e+02,    3.77408e+00,    1.90573e+01,    2.81452e+01
   6.50000e+02,    3.78414e+00,    1.88223e+01,    2.82038e+01
   6.60000e+02,    3.79414e+00,    1.85945e+01,    2.82617e+01
   6.70000e+02,    3.80409e+00,    1.83737e+01,    2.83188e+01
   6.80000e+02,    3.81398e+00,    1.81595e+01,    2.83752e+01
   6.90000e+02,    3.82379e+00,    1.79517e+01,    2.84310e+01
   7.00000e+02,    3.83352e+00,    1.77499e+01,    2.84861e+01
   7.10000e+02,    3.84317e+00,    1.75540e+01,    2.85405e+01
   7.20000e+02,    3.85273e+00,    1.73636e+01,    2.85943e+01
   7.30000e+02,    3.86220e+00,    1.71786e+01,    2.86475e+01
   7.40000e+02,    3.87157e+00,    1.69987e+01,    2.87001e+01
   7.50000e+02,    3.88084e+00,    1.68237e+01,    2.87522e+01
   7.60000e+02,    3.89000e+00,    1.66535e+01,    2.88036e+01
   7.70000e+02,    3.89906e+00,    1.64878e+01,    2.88546e+01
   7.80000e+02,    3.90800e+00,    1.63265e+01,    2.89049e+01
   7.90000e+02,    3.91684e+00,    1.61693e+01,    2.89548e+01
   8.00000e+02,    3.92556e+00,    1.60162e+01,    2.90041e+01
   8.10000e+02,    3.93417e+00,    1.58670e+01,    2.90529e+01
   8.20000e+02,    3.94266e+00,    1.57215e+01,    2.91012e+01
   8.30000e+02,    3.95103e+00,    1.55797e+01,    2.91491e+01
   8.40000e+02,    3.95928e+00,    1.54413e+01,    2.91964e+01
   8.50000e+02,    3.96742e+00,    1.53062e+01,    2.92433e+01
   8.60000e+02,    3.97544e+00,    1.51744e+01,    2.92898e+01
   8.70000e+02,    3.98335e+00,    1.50458e+01,    2.93358e+01
   8.80000e+02,    3.99113e+00,    1.49201e+01,    2.93814e+01
   8.90000e+02,    3.99880e+00,    1.47973e+01,    2.94265e+01
   9.00000e+02,    4.00635e+00,    1.46774e+01,    2.94712e+01
   9.10000e+02,    4.01379e+00,    1.45602e+01,    2.95155e+01
   9.20000e+02,    4.02111e+00,    1.44456e+01,    2.95594e+01
   9.30000e+02,    4.02832e+00,    1.43335e+01,    2.96030e+01
   9.40000e+02,    4.03541e+00,    1.42239e+01,    2.96461e+01
   9.50000e+02,    4.04239e+00,    1.41167e+01,    2.96888e+01
   9.60000e+02,    4.04926e+00,    1.40118e+01,    2.97312e+01
   9.70000e+02,    4.05602e+00,    1.39092e+01,    2.97732e+01
   9.80000e+02,    4.06267e+00,    1.38086e+01,    2.98148e+01
   9.90000e+02,    4.06922e+00,    1.37102e+01,    2.98561e+01
   1.00000e+03,    4.07565e+00,    1.36139e+01,    2.98970e+01
   1.01000e+03,    4.08199e+00,    1.35195e+01,    2.99376e+01
   1.02000e+03,    4.08822e+00,    1.34270e+01,    2.99779e+01
   1.03000e+03,    4.09435e+00,    1.33363e+01,    3.00178e+01
   1.04000e+03,    4.10038e+00,    1.32475e+01,    3.00574e+01
   1.05000e+03,    4.10631e+00,    1.31604e+01,    3.00966e+01
   1.06000e+03,    4.11214e+00,    1.30750e+01,    3.01356e+01
   1.07000e+03,    4.11788e+00,    1.29913e+01,    3.01742e+01
   1.08000e+03,    4.12352e+00,    1.29091e+01,    3.02125e+01
   1.09000e+03,    4.12907e+00,    1.28286e+01,    3.02506e+01
   1.10000e+03,    4.13453e+00,    1.27495e+01,    3.02883e+01
   1.11000e+03,    4.13990e+00,    1.26719e+01,    3.03258e+01
   1.12000e+03,    4.14518e+00,    1.25958e+01,    3.03629e+01
   1.13000e+03,    4.15038e+00,    1.25210e+01,    3.03998e+01
   1.14000e+03,    4.15549e+00,    1.24476e+01,    3.04364e+01
   1.15000e+03,    4.16052e+00,    1.23755e+01,    3.04727e+01
   1.16000e+03,    4.16546e+00,    1.23047e+01,    3.05087e+01
   1.17000e+03,    4.17033e+00,    1.22352e+01,    3.05445e+01
   1.18000e+03,    4.17511e+00,    1.21668e+01,    3.05800e+01
   1.19000e+03,    4.17982e+00,    1.20997e+01,    3.06153e+01
   1.20000e+03,    4.18445e+00,    1.20337e+01,    3.06503e+01
   1.21000e+03,    4.18900e+00,    1.19689e+01,    3.06850e+01
   1.22000e+03,    4.19349e+00,    1.19051e+01,    3.07195e+01
   1.23000e+03,    4.19790e+00,    1.18424e+01,    3.07538e+01
   1.24000e+03,    4.20224e+00,    1.17808e+01,    3.07878e+01
   1.25000e+03,    4.20651e+00,    1.17202e+01,    3.08215e+01
   1.26000e+03,    4.21071e+00,    1.16606e+01,    3.08551e+01
   1.27000e+03,    4.21484e+00,    1.16019e+01,    3.08884e+01
   1.28000e+03,    4.21891e+00,    1.15442e+01,    3.09214e+01
   1.29000e+03,    4.22292e+00,    1.14875e+01,    3.09543e+01
   1.30000e+03,    4.22686e+00,    1.14316e+01,    3.09869e+01
   1.31000e+03,    4.23074e+00,    1.13766e+01,    3.10193e+01
   1.32000e+03,    4.23456e+00,    1.13225e+01,    3.10515e+01
   1.33000e+03,    4.23832e+00,    1.12692e+01,    3.10835e+01
   1.34000e+03,    4.24202e+00,    1.12168e+01,    3.11152e+01
   1.35000e+03,    4.24566e+00,    1.11651e+01,    3.11468e+01
   1.36000e+03,    4.24925e+00,    1.11143e+01,    3.11781e+01
   1.37000e+03,    4.25278e+00,    1.10642e+01,    3.12093e+01
   1.38000e+03,    4.25626e+00,    1.10148e+01,    3.12402e+01
   1.39000e+03,    4.25968e+00,    1.09662e+01,    3.12710e+01
   1.40000e+03,    4.26306e+00,    1.09183e+01,    3.13015e+01
   1.41000e+03,    4.26638e+00,    1.08711e+01,    3.13319e+01
   1.42000e+03,    4.26965e+00,    1.08246e+01,    3.13620e+01
   1.43000e+03,    4.27287e+00,    1.07788e+01,    3.13920e+01
   1.44000e+03,    4.27605e+00,    1.07336e+01,    3.14218e+01
   1.45000e+03,    4.27918e+00,    1.06891e+01,    3.14514e+01
   1.46000e+03,    4.28226e+00,    1.06452e+01,    3.14808e+01
   1.47000e+03,    4.28529e+00,    1.06019e+01,    3.15101e+01
   1.48000e+03,    4.28828e+00,    1.05593e+01,    3.15391e+01
   1.49000e+03,    4.29123e+00,    1.05172e+01,    3.15680e+01
   1.50000e+03,    4.29414e+00,    1.04757e+01,    3.15967e+01
   1.51000e+03,    4.29700e+00,    1.04348e+01,    3.16253e+01
   1.52000e+03,    4.29982e+00,    1.03944e+01,    3.16536e+01
   1.53000e+03,    4.30260e+00,    1.03546e+01,    3.16818e+01
   1.54000e+03,    4.30535e+00,    1.03153e+01,    3.17099e+01
   1.55000e+03,    4.30805e+00,    1.02765e+01,    3.17378e+01
   1.56000e+03,    4.31071e+00,    1.02383e+01,    3.17655e+01
   1.57000e+03,    4.31334e+00,    1.02005e+01,    3.17930e+01
   1.58000e+03,    4.31593e+00,    1.01633e+01,    3.18204e+01
   1.59000e+03,    4.31849e+00,    1.01265e+01,    3.18477e+01
   1.60000e+03,    4.32101e+00,    1.00902e+01,    3.18747e+01
   1.61000e+03,    4.32349e+00,    1.00544e+01,    3.19017e+01
   1.62000e+03,    4.32594e+00,    1.00190e+01,    3.19285e+01
   1.63000e+03,    4.32836e+00,    9.98408e+00,    3.19551e+01
   1.64000e+03,    4.33074e+00,    9.94961e+00,    3.19816e+01
   1.65000e+03,    4.33310e+00,    9.91556e+00,    3.20079e+01
   1.66000e+03,    4.33542e+00,    9.88194e+00,    3.20341e+01
   1.67000e+03,    4.33771e+00,    9.84873e+00,    3.20601e+01
   1.68000e+03,    4.33997e+00,    9.81593e+00,    3.20860e+01
   1.69000e+03,    4.34220e+00,    9.78354e+00,    3.21118e+01
   1.70000e+03,    4.34440e+00,    9.75154e+00,    3.21374e+01
   1.71000e+03,    4.34657e+00,    9.71992e+00,    3.21629e+01
   1.72000e+03,    4.34871e+00,    9.68869e+00,    3.21883e+01
   1.73000e+03,    4.35083e+00,    9.65783e+00,    3.22135e+01
   1.74000e+03,    4.35292e+00,    9.62733e+00,    3.22386e+01
   1.75000e+03,    4.35498e+00,    9.59720e+00,    3.22635e+01
   1.76000e+03,    4.35701e+00,    9.56742e+00,    3.22883e+01
   1.77000e+03,    4.35902e+00,    9.53799e+00,    3.23130e+01
   1.78000e+03,    4.36101e+00,    9.50890e+00,    3.23376e+01
   1.79000e+03,    4.36297e+00,    9.48015e+00,    3.23620e+01
   1.80000e+03,    4.36490e+00,    9.45172e+00,    3.23863e+01
   1.81000e+03,    4.36682e+00,    9.42362e+00,    3.24105e+01
   1.82000e+03,    4.36870e+00,    9.39584e+00,    3.24346e+01
   1.83000e+03,    4.37057e+00,    9.36838e+00,    3.24585e+01
   1.84000e+03,    4.37241e+00,    9.34122e+00,    3.24824e+01
   1.85000e+03,    4.37423e+00,    9.31437e+00,    3.25061e+01
   1.86000e+03,    4.37603e+00,    9.28781e+00,    3.25296e+01
   1.87000e+03,    4.37781e+00,    9.26155e+00,    3.25531e+01
   1.88000e+03,    4.37956e+00,    9.23558e+00,    3.25765e+01
   1.89000e+03,    4.38130e+00,    9.20989e+00,    3.25997e+01
   1.90000e+03,    4.38301e+00,    9.18448e+00,    3.26228e+01
   1.91000e+03,    4.38471e+00,    9.15935e+00,    3.26458e+01
   1.92000e+03,    4.38638e+00,    9.13448e+00,    3.26687e+01
   1.93000e+03,    4.38804e+00,    9.10989e+00,    3.26915e+01
   1.94000e+03,    4.38968e+00,    9.08555e+00,    3.27142e+01
   1.95000e+03,    4.39129e+00,    9.06147e+00,    3.27368e+01
   1.96000e+03,    4.39289e+00,    9.03765e+00,    3.27593e+01
   1.97000e+03,    4.39448e+00,    9.01408e+00,    3.27816e+01
   1.98000e+03,    4.39604e+00,    8.99075e+00,    3.28039e+01
   1.99000e+03,    4.39759e+00,    8.96766e+00,    3.28260e+01
   2.00000e+03,    4.39912e+00,    8.94482e+00,    3.28481e+01
   2.01000e+03,    4.40063e+00,    8.92221e+00,    3.28700e+01
   2.02000e+03,    4.40213e+00,    8.89983e+00,    3.28919e+01
   2.03000e+03,    4.40361e+00,    8.87767e+00,    3.29136e+01
   2.04000e+03,    4.40507e+00,    8.85575e+00,    3.29352e+01
   2.05000e+03,    4.40652e+00,    8.83404e+00,    3.29568e+01
   2.06000e+03,    4.40795e+00,    8.81255e+00,    3.29782e+01
   2.07000e+03,    4.40937e+00,    8.79127e+00,    3.29996e+01
   2.08000e+03,    4.41077e+00,    8.77021e+00,    3.30208e+01
   2.09000e+03,    4.41216e+00,    8.74936e+00,    3.30420e+01
   2.10000e+03,    4.41354e+00,    8.72871e+00,    3.30631e+01
   2.11000e+03,    4.41489e+00,    8.70826e+00,    3.30840e+01
   2.12000e+03,    4.41624e+00,    8.68801e+00,    3.31049e+01
   2.13000e+03,    4.41757e+00,    8.66796e+00,    3.31257e+01
   2.14000e+03,    4.41889e+00,    8.64810e+00,    3.31464e+01
   2.15000e+03,    4.42020e+00,    8.62843e+00,    3.31670e+01
   2.16000e+03,    4.42149e+00,    8.60895e+00,    3.31875e+01
   2.17000e+03,    4.42277e+00,    8.58966e+00,    3.32079e+01
   2.18000e+03,    4.42403e+00,    8.57055e+00,    3.32283e+01
   2.19000e+03,    4.42529e+00,    8.55161e+00,    3.32485e+01
   2.20000e+03,    4.42653e+00,    8.53286e+00,    3.32687e+01
   2.21000e+03,    4.42776e+00,    8.51428e+00,    3.32888e+01
   2.22000e+03,    4.42898e+00,    8.49588e+00,    3.33087e+01
   2.23000e+03,    4.43018e+00,    8.47764e+00,    3.33287e+01
   2.24000e+03,    4.43138e+00,    8.45958e+00,    3.33485e+01
   2.25000e+03,    4.43256e+00,    8.44168e+00,    3.33682e+01
   2.26000e+03,    4.43373e+00,    8.42394e+00,    3.33879e+01
   2.27000e+03,    4.43490e+00,    8.40636e+00,    3.34075e+01
   2.28000e+03,    4.43605e+00,    8.38895e+00,    3.34270e+01
   2.29000e+03,    4.43719e+00,    8.37169e+00,    3.34464e+01
   2.30000e+03,    4.43832e+00,    8.35459e+00,    3.34657e+01
   2.31000e+03,    4.43944e+00,    8.33763e+00,    3.34850e+01
   2.32000e+03,    4.44055e+00,    8.32083e+00,    3.35041e+01
   2.33000e+03,    4.44165e+00,    8.30418e+00,    3.35232e+01
   2.34000e+03,    4.44273e+00,    8.28768e+00,    3.35423e+01
   2.35000e+03,    4.44381e+00,    8.27132e+00,    3.35612e+01
   2.36000e+03,    4.44489e+00,    8.25510e+00,    3.35801e+01
   2.37000e+03,    4.44595e+00,    8.23903e+00,    3.35989e+01
   2.38000e+03,    4.44700e+00,    8.22309e+00,    3.36176e+01
   2.39000e+03,    4.44804e+00,    8.20730e+00,    3.36363e+01
   2.40000e+03,    4.44908e+00,    8.19164e+00,    3.36548e+01
   2.41000e+03,    4.45010e+00,    8.17611e+00,    3.36733e+01
   2.42000e+03,    4.45112e+00,    8.16071e+00,    3.36918e+01
   2.43000e+03,    4.45212e+00,    8.14545e+00,    3.37101e+01
   2.44000e+03,    4.45312e+00,    8.13032e+00,    3.37284e+01
   2.45000e+03,    4.45412e+00,    8.11531e+00,    3.37466e+01
   2.46000e+03,    4.45510e+00,    8.10043e+00,    3.37648e+01
   2.47000e+03,    4.45607e+00,    8.08567e+00,    3.37828e+01
   2.48000e+03,    4.45704e+00,    8.07104e+00,    3.38008e+01
   2.49000e+03,    4.45800e+00,    8.05653e+00,    3.38188e+01
   2.50000e+03,    4.45895e+00,    8.04213e+00,    3.38367e+01
   2.51000e+03,    4.45990e+00,    8.02786e+00,    3.38545e+01
   2.52000e+03,    4.46083e+00,    8.01370e+00,    3.38722e+01
   2.53000e+03,    4.46176e+00,    7.99966e+00,    3.38899e+01
   2.54000e+03,    4.46269e+00,    7.98573e+00,    3.39075e+01
   2.55000e+03,    4.46360e+00,    7.97192e+00,    3.39250e+01
   2.56000e+03,    4.46451e+00,    7.95822e+00,    3.39425e+01
   2.57000e+03,    4.46541e+00,    7.94463e+00,    3.39599e+01
   2.58000e+03,    4.46631e+00,    7.93114e+00,    3.39772e+01
   2.59000e+03,    4.46719e+00,    7.91777e+00,    3.39945e+01
   2.60000e+03,    4.46807e+00,    7.90450e+00,    3.40117e+01
   2.61000e+03,    4.46895e+00,    7.89133e+00,    3.40289e+01
   2.62000e+03,    4.46982e+00,    7.87827e+00,    3.40460e+01
   2.63000e+03,    4.47068e+00,    7.86531e+00,    3.40630e+01
   2.64000e+03,    4.47154e+00,    7.85246e+00,    3.40800e+01
   2.65000e+03,    4.47238e+00,    7.83970e+00,    3.40969e+01
   2.66000e+03,    4.47323e+00,    7.82704e+00,    3.41137e+01
   2.67000e+03,    4.47407e+00,    7.81448e+00,    3.41305e+01
   2.68000e+03,    4.47490e+00,    7.80202e+00,    3.41472e+01
   2.69000e+03,    4.47572e+00,    7.78965e+00,    3.41639e+01
   2.70000e+03,    4.47654e+00,    7.77738e+00,    3.41805e+01
   2.71000e+03,    4.47736e+00,    7.76520e+00,    3.41971e+01
   2.72000e+03,    4.47817e+00,    7.75311e+00,    3.42135e+01
   2.73000e+03,    4.47897e+00,    7.74112e+00,    3.42300e+01
   2.74000e+03,    4.47977e+00,    7.72922e+00,    3.42464e+01
   2.75000e+03,    4.48056e+00,    7.71740e+00,    3.42627e+01
   2.76000e+03,    4.48135e+00,    7.70568e+00,    3.42789e+01
   2.77000e+03,    4.48213e+00,    7.69404e+00,    3.42952e+01
   2.78000e+03,    4.48291e+00,    7.68248e+00,    3.43113e+01
   2.79000e+03,    4.48368e+00,    7.67102e+00,    3.43274e+01
   2.80000e+03,    4.48445e+00,    7.65964e+00,    3.43434e+01
   2.81000e+03,    4.48521e+00,    7.64834e+00,    3.43594e+01
   2.82000e+03,    4.48597e+00,    7.63712e+00,    3.43754e+01
   2.83000e+03,    4.48672e+00,    7.62599e+00,    3.43913e+01
   2.84000e+03,    4.48747e+00,    7.61494e+00,    3.44071e+01
   2.85000e+03,    4.48822e+00,    7.60396e+00,    3.44229e+01
   2.86000e+03,    4.48896e+00,    7.59307e+00,    3.44386e+01
   2.87000e+03,    4.48969e+00,    7.58226e+00,    3.44542e+01
   2.88000e+03,    4.49042e+00,    7.57152e+00,    3.44699e+01
   2.89000e+03,    4.49115e+00,    7.56086e+00,    3.44854e+01
   2.90000e+03,    4.49187e+00,    7.55028e+00,    3.45009e+01
   2.91000e+03,    4.49259e+00,    7.53977e+00,    3.45164e+01
   2.92000e+03,    4.49330e+00,    7.52933e+00,    3.45318e+01
   2.93000e+03,    4.49401e+00,    7.51897e+00,    3.45472e+01
   2.94000e+03,    4.49472e+00,    7.50868e+00,    3.45625e+01
   2.95000e+03,    4.49542e+00,    7.49847e+00,    3.45778e+01
   2.96000e+03,    4.49611e+00,    7.48832e+00,    3.45930e+01
   2.97000e+03,    4.49681e+00,    7.47825e+00,    3.46081e+01
   2.98000e+03,    4.49750e+00,    7.46825e+00,    3.46233e+01
   2.99000e+03,    4.49818e+00,    7.45831e+00,    3.46383e+01
   3.00000e+03,    4.49887e+00,    7.44845e+00,    3.46533e+01
   3.01000e+03,    4.49954e+00,    7.43865e+00,    3.46683e+01
   3.02000e+03,    4.50022e+00,    7.42892e+00,    3.46832e+01
   3.03000e+03,    4.50089e+00,    7.41925e+00,    3.46981e+01
   3.04000e+03,    4.50156e+00,    7.40965e+00,    3.47130e+01
   3.05000e+03,    4.50222e+00,    7.40012e+00,    3.47277e+01
   3.06000e+03,    4.50288e+00,    7.39065e+00,    3.47425e+01
   3.07000e+03,    4.50354e+00,    7.38125e+00,    3.47572e+01
   3.08000e+03,    4.50420e+00,    7.37190e+00,    3.47718e+01
   3.09000e+03,    4.50485e+00,    7.36262e+00,    3.47864e+01
   3.10000e+03,    4.50550e+00,    7.35341e+00,    3.48010e+01
   3.11000e+03,    4.50614e+00,    7.34425e+00,    3.48155e+01
   3.12000e+03,    4.50678e+00,    7.33515e+00,    3.48299e+01
   3.13000e+03,    4.50742e+00,    7.32612e+00,    3.48444e+01
   3.14000e+03,    4.50806e+00,    7.31714e+00,    3.48588e+01
   3.15000e+03,    4.50869e+00,    7.30823e+00,    3.48731e+01
   3.16000e+03,    4.50932e+00,    7.29937e+00,    3.48874e+01
   3.17000e+03,    4.50994e+00,    7.29057e+00,    3.49016e+01
   3.18000e+03,    4.51057e+00,    7.28183e+00,    3.49158e+01
   3.19000e+03,    4.51119e+00,    7.27314e+00,    3.49300e+01
   3.20000e+03,    4.51181e+00,    7.26451e+00,    3.49441e+01
   3.21000e+03,    4.51242e+00,    7.25593e+00,    3.49582e+01
   3.22000e+03,    4.51304e+00,    7.24742e+00,    3.49722e+01
   3.23000e+03,    4.51365e+00,    7.23895e+00,    3.49862e+01
   3.24000e+03,    4.51425e+00,    7.23054e+00,    3.50002e+01
   3.25000e+03,    4.51486e+00,    7.22218e+00,    3.50141e+01
   3.26000e+03,    4.51546e+00,    7.21388e+00,    3.50280e+01
   3.27000e+03,    4.51606e+00,    7.20563e+00,    3.50418e+01
   3.28000e+03,    4.51666e+00,    7.19743e+00,    3.50556e+01
   3.29000e+03,    4.51725e+00,    7.18928e+00,    3.50693e+01
   3.30000e+03,    4.51785e+00,    7.18119e+00,    3.50830e+01
