# Statistical Thermodynamics
# Computation done on 12-Feb-2020 07:55:57
# Species CH(A)
# Standard state T =    2.98150e+02 (K) P =    1.01325e+05 (Pa)
# C_P           2.91554e+01 (J/K mol)
# H             8.71542e+05 (J/mol)
# S             1.82708e+02 (J/K mol)
# C_P/R         3.50659e+00
# H/RT          3.51576e+02
# S/R           2.19747e+01
#     T            C_P/R           H/RT            S/R
   2.00000e+02,    3.50435e+00,    5.22392e+02,    2.05751e+01
   2.10000e+02,    3.50454e+00,    4.97683e+02,    2.07461e+01
   2.20000e+02,    3.50473e+00,    4.75220e+02,    2.09092e+01
   2.30000e+02,    3.50492e+00,    4.54711e+02,    2.10649e+01
   2.40000e+02,    3.50512e+00,    4.35911e+02,    2.12141e+01
   2.50000e+02,    3.50533e+00,    4.18614e+02,    2.13572e+01
   2.60000e+02,    3.50556e+00,    4.02649e+02,    2.14947e+01
   2.70000e+02,    3.50579e+00,    3.87866e+02,    2.16270e+01
   2.80000e+02,    3.50605e+00,    3.74138e+02,    2.17545e+01
   2.90000e+02,    3.50633e+00,    3.61358e+02,    2.18775e+01
   3.00000e+02,    3.50665e+00,    3.49430e+02,    2.19964e+01
   3.10000e+02,    3.50701e+00,    3.38271e+02,    2.21114e+01
   3.20000e+02,    3.50742e+00,    3.27809e+02,    2.22228e+01
   3.30000e+02,    3.50789e+00,    3.17982e+02,    2.23307e+01
   3.40000e+02,    3.50842e+00,    3.08733e+02,    2.24354e+01
   3.50000e+02,    3.50904e+00,    3.00012e+02,    2.25371e+01
   3.60000e+02,    3.50976e+00,    2.91776e+02,    2.26360e+01
   3.70000e+02,    3.51057e+00,    2.83985e+02,    2.27322e+01
   3.80000e+02,    3.51150e+00,    2.76604e+02,    2.28258e+01
   3.90000e+02,    3.51256e+00,    2.69602e+02,    2.29170e+01
   4.00000e+02,    3.51376e+00,    2.62950e+02,    2.30060e+01
   4.10000e+02,    3.51510e+00,    2.56622e+02,    2.30928e+01
   4.20000e+02,    3.51661e+00,    2.50596e+02,    2.31775e+01
   4.30000e+02,    3.51828e+00,    2.44850e+02,    2.32602e+01
   4.40000e+02,    3.52013e+00,    2.39365e+02,    2.33411e+01
   4.50000e+02,    3.52216e+00,    2.34124e+02,    2.34203e+01
   4.60000e+02,    3.52438e+00,    2.29111e+02,    2.34977e+01
   4.70000e+02,    3.52680e+00,    2.24311e+02,    2.35735e+01
   4.80000e+02,    3.52942e+00,    2.19711e+02,    2.36478e+01
   4.90000e+02,    3.53224e+00,    2.15300e+02,    2.37206e+01
   5.00000e+02,    3.53527e+00,    2.11064e+02,    2.37920e+01
   5.10000e+02,    3.53851e+00,    2.06995e+02,    2.38620e+01
   5.20000e+02,    3.54196e+00,    2.03082e+02,    2.39308e+01
   5.30000e+02,    3.54561e+00,    1.99318e+02,    2.39983e+01
   5.40000e+02,    3.54948e+00,    1.95692e+02,    2.40646e+01
   5.50000e+02,    3.55355e+00,    1.92199e+02,    2.41298e+01
   5.60000e+02,    3.55783e+00,    1.88830e+02,    2.41938e+01
   5.70000e+02,    3.56230e+00,    1.85580e+02,    2.42568e+01
   5.80000e+02,    3.56698e+00,    1.82442e+02,    2.43188e+01
   5.90000e+02,    3.57184e+00,    1.79410e+02,    2.43799e+01
   6.00000e+02,    3.57689e+00,    1.76479e+02,    2.44399e+01
   6.10000e+02,    3.58212e+00,    1.73645e+02,    2.44991e+01
   6.20000e+02,    3.58753e+00,    1.70902e+02,    2.45574e+01
   6.30000e+02,    3.59311e+00,    1.68246e+02,    2.46148e+01
   6.40000e+02,    3.59886e+00,    1.65674e+02,    2.46715e+01
   6.50000e+02,    3.60476e+00,    1.63180e+02,    2.47273e+01
   6.60000e+02,    3.61081e+00,    1.60762e+02,    2.47824e+01
   6.70000e+02,    3.61700e+00,    1.58417e+02,    2.48367e+01
   6.80000e+02,    3.62333e+00,    1.56140e+02,    2.48904e+01
   6.90000e+02,    3.62979e+00,    1.53930e+02,    2.49433e+01
   7.00000e+02,    3.63637e+00,    1.51783e+02,    2.49956e+01
   7.10000e+02,    3.64306e+00,    1.49696e+02,    2.50472e+01
   7.20000e+02,    3.64987e+00,    1.47668e+02,    2.50982e+01
   7.30000e+02,    3.65677e+00,    1.45695e+02,    2.51486e+01
   7.40000e+02,    3.66377e+00,    1.43776e+02,    2.51984e+01
   7.50000e+02,    3.67086e+00,    1.41908e+02,    2.52476e+01
   7.60000e+02,    3.67803e+00,    1.40089e+02,    2.52963e+01
   7.70000e+02,    3.68527e+00,    1.38317e+02,    2.53444e+01
   7.80000e+02,    3.69258e+00,    1.36591e+02,    2.53920e+01
   7.90000e+02,    3.69995e+00,    1.34909e+02,    2.54391e+01
   8.00000e+02,    3.70738e+00,    1.33269e+02,    2.54857e+01
   8.10000e+02,    3.71486e+00,    1.31670e+02,    2.55318e+01
   8.20000e+02,    3.72238e+00,    1.30109e+02,    2.55774e+01
   8.30000e+02,    3.72994e+00,    1.28586e+02,    2.56226e+01
   8.40000e+02,    3.73753e+00,    1.27100e+02,    2.56673e+01
   8.50000e+02,    3.74516e+00,    1.25649e+02,    2.57116e+01
   8.60000e+02,    3.75281e+00,    1.24231e+02,    2.57554e+01
   8.70000e+02,    3.76047e+00,    1.22847e+02,    2.57989e+01
   8.80000e+02,    3.76815e+00,    1.21493e+02,    2.58419e+01
   8.90000e+02,    3.77585e+00,    1.20171e+02,    2.58845e+01
   9.00000e+02,    3.78354e+00,    1.18877e+02,    2.59267e+01
   9.10000e+02,    3.79124e+00,    1.17613e+02,    2.59686e+01
   9.20000e+02,    3.79894e+00,    1.16376e+02,    2.60101e+01
   9.30000e+02,    3.80664e+00,    1.15165e+02,    2.60512e+01
   9.40000e+02,    3.81433e+00,    1.13981e+02,    2.60919e+01
   9.50000e+02,    3.82200e+00,    1.12821e+02,    2.61323e+01
   9.60000e+02,    3.82966e+00,    1.11686e+02,    2.61724e+01
   9.70000e+02,    3.83731e+00,    1.10574e+02,    2.62121e+01
   9.80000e+02,    3.84493e+00,    1.09485e+02,    2.62515e+01
   9.90000e+02,    3.85253e+00,    1.08418e+02,    2.62906e+01
   1.00000e+03,    3.86011e+00,    1.07372e+02,    2.63294e+01
   1.01000e+03,    3.86766e+00,    1.06347e+02,    2.63678e+01
   1.02000e+03,    3.87518e+00,    1.05342e+02,    2.64059e+01
   1.03000e+03,    3.88267e+00,    1.04357e+02,    2.64438e+01
   1.04000e+03,    3.89013e+00,    1.03391e+02,    2.64813e+01
   1.05000e+03,    3.89755e+00,    1.02444e+02,    2.65186e+01
   1.06000e+03,    3.90494e+00,    1.01514e+02,    2.65556e+01
   1.07000e+03,    3.91229e+00,    1.00602e+02,    2.65923e+01
   1.08000e+03,    3.91960e+00,    9.97066e+01,    2.66287e+01
   1.09000e+03,    3.92687e+00,    9.88279e+01,    2.66649e+01
   1.10000e+03,    3.93410e+00,    9.79652e+01,    2.67008e+01
   1.11000e+03,    3.94129e+00,    9.71181e+01,    2.67364e+01
   1.12000e+03,    3.94843e+00,    9.62862e+01,    2.67718e+01
   1.13000e+03,    3.95553e+00,    9.54690e+01,    2.68069e+01
   1.14000e+03,    3.96258e+00,    9.46663e+01,    2.68418e+01
   1.15000e+03,    3.96959e+00,    9.38776e+01,    2.68764e+01
   1.16000e+03,    3.97655e+00,    9.31026e+01,    2.69108e+01
   1.17000e+03,    3.98346e+00,    9.23409e+01,    2.69450e+01
   1.18000e+03,    3.99032e+00,    9.15921e+01,    2.69789e+01
   1.19000e+03,    3.99714e+00,    9.08560e+01,    2.70126e+01
   1.20000e+03,    4.00391e+00,    9.01322e+01,    2.70461e+01
   1.21000e+03,    4.01062e+00,    8.94204e+01,    2.70794e+01
   1.22000e+03,    4.01729e+00,    8.87204e+01,    2.71124e+01
   1.23000e+03,    4.02391e+00,    8.80317e+01,    2.71452e+01
   1.24000e+03,    4.03047e+00,    8.73543e+01,    2.71778e+01
   1.25000e+03,    4.03699e+00,    8.66877e+01,    2.72102e+01
   1.26000e+03,    4.04346e+00,    8.60318e+01,    2.72424e+01
   1.27000e+03,    4.04987e+00,    8.53862e+01,    2.72744e+01
   1.28000e+03,    4.05623e+00,    8.47508e+01,    2.73062e+01
   1.29000e+03,    4.06255e+00,    8.41253e+01,    2.73378e+01
   1.30000e+03,    4.06881e+00,    8.35095e+01,    2.73692e+01
   1.31000e+03,    4.07502e+00,    8.29031e+01,    2.74004e+01
   1.32000e+03,    4.08118e+00,    8.23059e+01,    2.74314e+01
   1.33000e+03,    4.08728e+00,    8.17178e+01,    2.74622e+01
   1.34000e+03,    4.09334e+00,    8.11385e+01,    2.74929e+01
   1.35000e+03,    4.09934e+00,    8.05678e+01,    2.75233e+01
   1.36000e+03,    4.10529e+00,    8.00055e+01,    2.75536e+01
   1.37000e+03,    4.11119e+00,    7.94515e+01,    2.75837e+01
   1.38000e+03,    4.11704e+00,    7.89056e+01,    2.76136e+01
   1.39000e+03,    4.12284e+00,    7.83676e+01,    2.76434e+01
   1.40000e+03,    4.12859e+00,    7.78373e+01,    2.76729e+01
   1.41000e+03,    4.13428e+00,    7.73146e+01,    2.77023e+01
   1.42000e+03,    4.13993e+00,    7.67992e+01,    2.77316e+01
   1.43000e+03,    4.14552e+00,    7.62911e+01,    2.77606e+01
   1.44000e+03,    4.15106e+00,    7.57901e+01,    2.77896e+01
   1.45000e+03,    4.15655e+00,    7.52961e+01,    2.78183e+01
   1.46000e+03,    4.16199e+00,    7.48089e+01,    2.78469e+01
   1.47000e+03,    4.16738e+00,    7.43283e+01,    2.78753e+01
   1.48000e+03,    4.17272e+00,    7.38542e+01,    2.79036e+01
   1.49000e+03,    4.17801e+00,    7.33866e+01,    2.79317e+01
   1.50000e+03,    4.18325e+00,    7.29252e+01,    2.79597e+01
   1.51000e+03,    4.18843e+00,    7.24700e+01,    2.79875e+01
   1.52000e+03,    4.19357e+00,    7.20208e+01,    2.80151e+01
   1.53000e+03,    4.19865e+00,    7.15775e+01,    2.80427e+01
   1.54000e+03,    4.20369e+00,    7.11400e+01,    2.80700e+01
   1.55000e+03,    4.20867e+00,    7.07082e+01,    2.80972e+01
   1.56000e+03,    4.21361e+00,    7.02819e+01,    2.81243e+01
   1.57000e+03,    4.21849e+00,    6.98611e+01,    2.81513e+01
   1.58000e+03,    4.22333e+00,    6.94457e+01,    2.81781e+01
   1.59000e+03,    4.22811e+00,    6.90355e+01,    2.82047e+01
   1.60000e+03,    4.23284e+00,    6.86304e+01,    2.82313e+01
   1.61000e+03,    4.23752e+00,    6.82305e+01,    2.82576e+01
   1.62000e+03,    4.24216e+00,    6.78355e+01,    2.82839e+01
   1.63000e+03,    4.24674e+00,    6.74453e+01,    2.83100e+01
   1.64000e+03,    4.25127e+00,    6.70600e+01,    2.83360e+01
   1.65000e+03,    4.25575e+00,    6.66793e+01,    2.83619e+01
   1.66000e+03,    4.26018e+00,    6.63033e+01,    2.83876e+01
   1.67000e+03,    4.26456e+00,    6.59318e+01,    2.84132e+01
   1.68000e+03,    4.26890e+00,    6.55648e+01,    2.84387e+01
   1.69000e+03,    4.27318e+00,    6.52021e+01,    2.84640e+01
   1.70000e+03,    4.27740e+00,    6.48437e+01,    2.84892e+01
   1.71000e+03,    4.28158e+00,    6.44895e+01,    2.85143e+01
   1.72000e+03,    4.28571e+00,    6.41395e+01,    2.85393e+01
   1.73000e+03,    4.28979e+00,    6.37935e+01,    2.85642e+01
   1.74000e+03,    4.29381e+00,    6.34515e+01,    2.85889e+01
   1.75000e+03,    4.29779e+00,    6.31135e+01,    2.86135e+01
   1.76000e+03,    4.30171e+00,    6.27793e+01,    2.86380e+01
   1.77000e+03,    4.30559e+00,    6.24490e+01,    2.86624e+01
   1.78000e+03,    4.30941e+00,    6.21223e+01,    2.86867e+01
   1.79000e+03,    4.31318e+00,    6.17994e+01,    2.87108e+01
   1.80000e+03,    4.31690e+00,    6.14800e+01,    2.87349e+01
   1.81000e+03,    4.32057e+00,    6.11642e+01,    2.87588e+01
   1.82000e+03,    4.32418e+00,    6.08519e+01,    2.87826e+01
   1.83000e+03,    4.32775e+00,    6.05430e+01,    2.88063e+01
   1.84000e+03,    4.33126e+00,    6.02375e+01,    2.88299e+01
   1.85000e+03,    4.33472e+00,    5.99353e+01,    2.88534e+01
   1.86000e+03,    4.33813e+00,    5.96364e+01,    2.88768e+01
   1.87000e+03,    4.34148e+00,    5.93407e+01,    2.89000e+01
   1.88000e+03,    4.34479e+00,    5.90481e+01,    2.89232e+01
   1.89000e+03,    4.34804e+00,    5.87587e+01,    2.89463e+01
   1.90000e+03,    4.35124e+00,    5.84723e+01,    2.89692e+01
   1.91000e+03,    4.35438e+00,    5.81890e+01,    2.89921e+01
   1.92000e+03,    4.35747e+00,    5.79086e+01,    2.90148e+01
   1.93000e+03,    4.36051e+00,    5.76312e+01,    2.90374e+01
   1.94000e+03,    4.36350e+00,    5.73566e+01,    2.90600e+01
   1.95000e+03,    4.36643e+00,    5.70848e+01,    2.90824e+01
   1.96000e+03,    4.36931e+00,    5.68159e+01,    2.91048e+01
   1.97000e+03,    4.37214e+00,    5.65496e+01,    2.91270e+01
   1.98000e+03,    4.37491e+00,    5.62861e+01,    2.91492e+01
   1.99000e+03,    4.37763e+00,    5.60253e+01,    2.91712e+01
   2.00000e+03,    4.38029e+00,    5.57670e+01,    2.91932e+01
   2.01000e+03,    4.38290e+00,    5.55114e+01,    2.92150e+01
   2.02000e+03,    4.38546e+00,    5.52583e+01,    2.92368e+01
   2.03000e+03,    4.38796e+00,    5.50077e+01,    2.92584e+01
   2.04000e+03,    4.39041e+00,    5.47596e+01,    2.92800e+01
   2.05000e+03,    4.39280e+00,    5.45139e+01,    2.93015e+01
   2.06000e+03,    4.39514e+00,    5.42706e+01,    2.93229e+01
   2.07000e+03,    4.39743e+00,    5.40296e+01,    2.93441e+01
   2.08000e+03,    4.39966e+00,    5.37910e+01,    2.93653e+01
   2.09000e+03,    4.40183e+00,    5.35547e+01,    2.93865e+01
   2.10000e+03,    4.40395e+00,    5.33206e+01,    2.94075e+01
   2.11000e+03,    4.40601e+00,    5.30888e+01,    2.94284e+01
   2.12000e+03,    4.40802e+00,    5.28592e+01,    2.94492e+01
   2.13000e+03,    4.40998e+00,    5.26317e+01,    2.94700e+01
   2.14000e+03,    4.41188e+00,    5.24064e+01,    2.94906e+01
   2.15000e+03,    4.41372e+00,    5.21832e+01,    2.95112e+01
   2.16000e+03,    4.41551e+00,    5.19620e+01,    2.95317e+01
   2.17000e+03,    4.41724e+00,    5.17429e+01,    2.95521e+01
   2.18000e+03,    4.41892e+00,    5.15258e+01,    2.95724e+01
   2.19000e+03,    4.42055e+00,    5.13107e+01,    2.95926e+01
   2.20000e+03,    4.42211e+00,    5.10976e+01,    2.96128e+01
   2.21000e+03,    4.42363e+00,    5.08864e+01,    2.96328e+01
   2.22000e+03,    4.42508e+00,    5.06771e+01,    2.96528e+01
   2.23000e+03,    4.42649e+00,    5.04697e+01,    2.96727e+01
   2.24000e+03,    4.42783e+00,    5.02641e+01,    2.96925e+01
   2.25000e+03,    4.42912e+00,    5.00604e+01,    2.97122e+01
   2.26000e+03,    4.43036e+00,    4.98585e+01,    2.97319e+01
   2.27000e+03,    4.43154e+00,    4.96584e+01,    2.97514e+01
   2.28000e+03,    4.43267e+00,    4.94600e+01,    2.97709e+01
   2.29000e+03,    4.43374e+00,    4.92634e+01,    2.97903e+01
   2.30000e+03,    4.43475e+00,    4.90685e+01,    2.98097e+01
   2.31000e+03,    4.43571e+00,    4.88753e+01,    2.98289e+01
   2.32000e+03,    4.43662e+00,    4.86837e+01,    2.98481e+01
   2.33000e+03,    4.43747e+00,    4.84938e+01,    2.98671e+01
   2.34000e+03,    4.43827e+00,    4.83056e+01,    2.98861e+01
   2.35000e+03,    4.43901e+00,    4.81189e+01,    2.99051e+01
   2.36000e+03,    4.43969e+00,    4.79338e+01,    2.99239e+01
   2.37000e+03,    4.44033e+00,    4.77503e+01,    2.99427e+01
   2.38000e+03,    4.44090e+00,    4.75683e+01,    2.99614e+01
   2.39000e+03,    4.44143e+00,    4.73879e+01,    2.99800e+01
   2.40000e+03,    4.44190e+00,    4.72089e+01,    2.99986e+01
   2.41000e+03,    4.44231e+00,    4.70315e+01,    3.00170e+01
   2.42000e+03,    4.44268e+00,    4.68555e+01,    3.00354e+01
   2.43000e+03,    4.44299e+00,    4.66810e+01,    3.00538e+01
   2.44000e+03,    4.44324e+00,    4.65078e+01,    3.00720e+01
   2.45000e+03,    4.44344e+00,    4.63362e+01,    3.00902e+01
   2.46000e+03,    4.44359e+00,    4.61659e+01,    3.01083e+01
   2.47000e+03,    4.44369e+00,    4.59969e+01,    3.01263e+01
   2.48000e+03,    4.44373e+00,    4.58294e+01,    3.01443e+01
   2.49000e+03,    4.44373e+00,    4.56632e+01,    3.01621e+01
   2.50000e+03,    4.44367e+00,    4.54983e+01,    3.01799e+01
   2.51000e+03,    4.44355e+00,    4.53347e+01,    3.01977e+01
   2.52000e+03,    4.44339e+00,    4.51725e+01,    3.02154e+01
   2.53000e+03,    4.44317e+00,    4.50115e+01,    3.02329e+01
   2.54000e+03,    4.44291e+00,    4.48518e+01,    3.02505e+01
   2.55000e+03,    4.44259e+00,    4.46933e+01,    3.02679e+01
   2.56000e+03,    4.44222e+00,    4.45361e+01,    3.02853e+01
   2.57000e+03,    4.44180e+00,    4.43801e+01,    3.03026e+01
   2.58000e+03,    4.44133e+00,    4.42253e+01,    3.03199e+01
   2.59000e+03,    4.44081e+00,    4.40717e+01,    3.03371e+01
   2.60000e+03,    4.44024e+00,    4.39192e+01,    3.03542e+01
   2.61000e+03,    4.43962e+00,    4.37680e+01,    3.03712e+01
   2.62000e+03,    4.43895e+00,    4.36179e+01,    3.03882e+01
   2.63000e+03,    4.43824e+00,    4.34689e+01,    3.04051e+01
   2.64000e+03,    4.43747e+00,    4.33210e+01,    3.04220e+01
   2.65000e+03,    4.43666e+00,    4.31743e+01,    3.04387e+01
   2.66000e+03,    4.43580e+00,    4.30287e+01,    3.04554e+01
   2.67000e+03,    4.43489e+00,    4.28841e+01,    3.04721e+01
   2.68000e+03,    4.43393e+00,    4.27407e+01,    3.04887e+01
   2.69000e+03,    4.43293e+00,    4.25983e+01,    3.05052e+01
   2.70000e+03,    4.43188e+00,    4.24569e+01,    3.05216e+01
   2.71000e+03,    4.43078e+00,    4.23166e+01,    3.05380e+01
   2.72000e+03,    4.42964e+00,    4.21773e+01,    3.05543e+01
   2.73000e+03,    4.42846e+00,    4.20390e+01,    3.05706e+01
   2.74000e+03,    4.42722e+00,    4.19018e+01,    3.05868e+01
   2.75000e+03,    4.42595e+00,    4.17655e+01,    3.06029e+01
   2.76000e+03,    4.42462e+00,    4.16302e+01,    3.06189e+01
   2.77000e+03,    4.42326e+00,    4.14959e+01,    3.06349e+01
   2.78000e+03,    4.42185e+00,    4.13625e+01,    3.06509e+01
   2.79000e+03,    4.42039e+00,    4.12301e+01,    3.06668e+01
   2.80000e+03,    4.41890e+00,    4.10987e+01,    3.06826e+01
   2.81000e+03,    4.41736e+00,    4.09681e+01,    3.06983e+01
   2.82000e+03,    4.41578e+00,    4.08385e+01,    3.07140e+01
   2.83000e+03,    4.41415e+00,    4.07098e+01,    3.07296e+01
   2.84000e+03,    4.41249e+00,    4.05820e+01,    3.07452e+01
   2.85000e+03,    4.41078e+00,    4.04551e+01,    3.07607e+01
   2.86000e+03,    4.40904e+00,    4.03290e+01,    3.07762e+01
   2.87000e+03,    4.40725e+00,    4.02039e+01,    3.07915e+01
   2.88000e+03,    4.40542e+00,    4.00796e+01,    3.08069e+01
   2.89000e+03,    4.40356e+00,    3.99561e+01,    3.08221e+01
   2.90000e+03,    4.40165e+00,    3.98335e+01,    3.08373e+01
   2.91000e+03,    4.39971e+00,    3.97118e+01,    3.08525e+01
   2.92000e+03,    4.39773e+00,    3.95909e+01,    3.08676e+01
   2.93000e+03,    4.39571e+00,    3.94707e+01,    3.08826e+01
   2.94000e+03,    4.39365e+00,    3.93514e+01,    3.08976e+01
   2.95000e+03,    4.39155e+00,    3.92329e+01,    3.09125e+01
   2.96000e+03,    4.38942e+00,    3.91152e+01,    3.09274e+01
   2.97000e+03,    4.38725e+00,    3.89983e+01,    3.09422e+01
   2.98000e+03,    4.38505e+00,    3.88821e+01,    3.09569e+01
   2.99000e+03,    4.38281e+00,    3.87668e+01,    3.09716e+01
   3.00000e+03,    4.38054e+00,    3.86521e+01,    3.09862e+01
   3.01000e+03,    4.37823e+00,    3.85383e+01,    3.10008e+01
   3.02000e+03,    4.37589e+00,    3.84252e+01,    3.10153e+01
   3.03000e+03,    4.37351e+00,    3.83128e+01,    3.10298e+01
   3.04000e+03,    4.37110e+00,    3.82011e+01,    3.10442e+01
   3.05000e+03,    4.36866e+00,    3.80902e+01,    3.10585e+01
   3.06000e+03,    4.36618e+00,    3.79800e+01,    3.10728e+01
   3.07000e+03,    4.36367e+00,    3.78705e+01,    3.10871e+01
   3.08000e+03,    4.36113e+00,    3.77617e+01,    3.11013e+01
   3.09000e+03,    4.35856e+00,    3.76536e+01,    3.11154e+01
   3.10000e+03,    4.35596e+00,    3.75462e+01,    3.11295e+01
   3.11000e+03,    4.35333e+00,    3.74395e+01,    3.11435e+01
   3.12000e+03,    4.35067e+00,    3.73334e+01,    3.11575e+01
   3.13000e+03,    4.34797e+00,    3.72281e+01,    3.11714e+01
   3.14000e+03,    4.34525e+00,    3.71233e+01,    3.11852e+01
   3.15000e+03,    4.34250e+00,    3.70193e+01,    3.11991e+01
   3.16000e+03,    4.33972e+00,    3.69159e+01,    3.12128e+01
   3.17000e+03,    4.33692e+00,    3.68131e+01,    3.12265e+01
   3.18000e+03,    4.33408e+00,    3.67110e+01,    3.12402e+01
   3.19000e+03,    4.33122e+00,    3.66095e+01,    3.12538e+01
   3.20000e+03,    4.32834e+00,    3.65086e+01,    3.12673e+01
   3.21000e+03,    4.32542e+00,    3.64083e+01,    3.12808e+01
   3.22000e+03,    4.32248e+00,    3.63087e+01,    3.12943e+01
   3.23000e+03,    4.31952e+00,    3.62097e+01,    3.13077e+01
   3.24000e+03,    4.31653e+00,    3.61112e+01,    3.13210e+01
   3.25000e+03,    4.31351e+00,    3.60134e+01,    3.13343e+01
   3.26000e+03,    4.31047e+00,    3.59162e+01,    3.13476e+01
   3.27000e+03,    4.30741e+00,    3.58195e+01,    3.13608e+01
   3.28000e+03,    4.30432e+00,    3.57234e+01,    3.13739e+01
   3.29000e+03,    4.30121e+00,    3.56279e+01,    3.13870e+01
   3.30000e+03,    4.29808e+00,    3.55330e+01,    3.14001e+01
